# Created by:        SpecsLab2, Version 2.79-r33432
# 
# XY-Serializer Export Settings: as follows
#   Comment Prefix:           #
#   Counts Per Second:        yes
#   Kinetic Energy Axis:      no
#   Separate Scan Data:       no
#   Separate Channel Data:    no
#   External Channel Data:    no
#   Transmission Function:    yes
#   ErrorBar:                 no
# 
# values in binding energy
# Region:            P 2p
# Acquisition Date:  02/29/15 10:01:10
# Analysis Method:   XPS
# Analyzer:          whatever
# Analyzer Lens:     whatever
# Analyzer Slit:     whatever
# Scan Mode:         FixedAnalyzerTransmission
# Number of Scans:   50
# Curves/Scan:       1
# Values/Curve:      401
# Dwell Time:        0.1
# Excitation Energy: 1486.61
# Binding Energy:    139.87
# Pass Energy:       20
# Bias Voltage:      90
# Detector Voltage:  2000
# Eff. Workfunction: 4.425
# Source:            XRayDummy
# Comment:           
#
# Cycle: 0
#
# Cycle: 0, Curve: 0
#
# ColumnLabels: energy counts/s transmission
#
139.87  661.88211  2.441281
139.82  660.66791  2.4412355
139.77  652.24468  2.4411901
139.72  649.74585  2.4411446
139.67  654.71606  2.4410992
139.62  667.65498  2.4410537
139.57  659.49253  2.4410082
139.52  645.55814  2.4409628
139.47  636.12758  2.4409173
139.42  644.50566  2.4408719
139.37  665.38612  2.4408265
139.32  648.52993  2.440781
139.27  652.33334  2.4407356
139.22  665.92394  2.4406901
139.17  648.8365  2.4406447
139.12  656.13162  2.4405993
139.07  641.59694  2.4405538
139.02  637.19496  2.4405084
138.97  639.00954  2.440463
138.92  646.04923  2.4404176
138.87  654.51188  2.4403722
138.82  644.97009  2.4403267
138.77  633.77873  2.4402813
138.72  628.59483  2.4402359
138.67  630.3379  2.4401905
138.62  653.47605  2.4401451
138.57  663.98271  2.4400997
138.52  634.25126  2.4400543
138.47  630.22506  2.4400089
138.42  624.31453  2.4399635
138.37  627.47837  2.4399181
138.32  644.41602  2.4398727
138.27  633.63907  2.4398273
138.22  614.52076  2.439782
138.17  641.62355  2.4397366
138.12  649.50945  2.4396912
138.07  636.09199  2.4396458
138.02  614.46555  2.4396004
137.97  616.73179  2.4395551
137.92  609.97148  2.4395097
137.87  600.83727  2.4394643
137.82  597.99643  2.439419
137.77  611.25367  2.4393736
137.72  603.82287  2.4393282
137.67  593.68741  2.4392829
137.62  609.38789  2.4392375
137.57  619.65052  2.4391922
137.52  604.44255  2.4391468
137.47  610.58518  2.4391015
137.42  610.48249  2.4390561
137.37  616.25259  2.4390108
137.32  618.89112  2.4389654
137.27  601.2077  2.4389201
137.22  582.96916  2.4388748
137.17  594.38125  2.4388294
137.12  637.29446  2.4387841
137.07  601.88101  2.4387388
137.02  585.8221  2.4386935
136.97  598.04948  2.4386481
136.92  602.55667  2.4386028
136.87  600.18448  2.4385575
136.82  604.57058  2.4385122
136.77  619.80887  2.4384669
136.72  590.79234  2.4384216
136.67  590.22582  2.4383763
136.62  610.84953  2.438331
136.57  593.711  2.4382857
136.52  591.73167  2.4382404
136.47  580.61167  2.4381951
136.42  567.76226  2.4381498
136.37  576.67327  2.4381045
136.32  590.11605  2.4380592
136.27  571.23109  2.4380139
136.22  581.61616  2.4379686
136.17  576.39405  2.4379233
136.12  597.45101  2.4378781
136.07  575.96486  2.4378328
136.02  562.14868  2.4377875
135.97  589.2393  2.4377422
135.92  574.25302  2.437697
135.87  583.27409  2.4376517
135.82  587.17209  2.4376064
135.77  580.50684  2.4375612
135.72  566.21398  2.4375159
135.67  566.38501  2.4374707
135.62  582.07417  2.4374254
135.57  580.64061  2.4373801
135.52  558.76695  2.4373349
135.47  568.43222  2.4372897
135.42  574.80195  2.4372444
135.37  580.44969  2.4371992
135.32  601.19624  2.4371539
135.27  581.71799  2.4371087
135.22  568.47927  2.4370635
135.17  543.69301  2.4370182
135.12  568.62162  2.436973
135.07  571.23339  2.4369278
135.02  577.52826  2.4368825
134.97  572.80137  2.4368373
134.92  574.3915  2.4367921
134.87  568.75348  2.4367469
134.82  585.78799  2.4367017
134.77  561.02165  2.4366565
134.72  575.92431  2.4366113
134.67  594.9452  2.4365661
134.62  587.60454  2.4365209
134.57  577.63758  2.4364756
134.52  575.61156  2.4364305
134.47  590.33876  2.4363853
134.42  584.94268  2.4363401
134.37  589.97452  2.4362949
134.32  596.09916  2.4362497
134.27  597.83506  2.4362045
134.22  594.16108  2.4361593
134.17  594.9188  2.4361141
134.12  589.38393  2.436069
134.07  595.39599  2.4360238
134.02  595.53122  2.4359786
133.97  591.3441  2.4359334
133.92  596.06963  2.4358883
133.87  606.17915  2.4358431
133.82  571.81627  2.4357979
133.77  564.27908  2.4357528
133.72  583.20526  2.4357076
133.67  594.49148  2.4356625
133.62  582.44797  2.4356173
133.57  585.70861  2.4355722
133.52  569.6239  2.435527
133.47  554.81763  2.4354819
133.42  578.5355  2.4354367
133.37  576.35555  2.4353916
133.32  575.74994  2.4353464
133.27  546.77846  2.4353013
133.22  550.9196  2.4352562
133.17  562.60145  2.435211
133.12  570.71591  2.4351659
133.07  544.71096  2.4351208
133.02  564.24253  2.4350757
132.97  545.72007  2.4350305
132.92  546.83721  2.4349854
132.87  527.93387  2.4349403
132.82  530.61549  2.4348952
132.77  531.39216  2.4348501
132.72  529.14784  2.434805
132.67  512.57061  2.4347599
132.62  513.48844  2.4347148
132.57  524.15636  2.4346697
132.52  532.45381  2.4346246
132.47  523.37353  2.4345795
132.42  532.5002  2.4345344
132.37  528.62744  2.4344893
132.32  517.85393  2.4344442
132.27  513.47352  2.4343991
132.22  538.75715  2.434354
132.17  533.03064  2.434309
132.12  514.00029  2.4342639
132.07  522.33811  2.4342188
132.02  552.15224  2.4341737
131.97  547.74443  2.4341287
131.92  564.49587  2.4340836
131.87  550.39376  2.4340385
131.82  554.76447  2.4339935
131.77  540.74949  2.4339484
131.72  557.54818  2.4339033
131.67  564.3121  2.4338583
131.62  587.53782  2.4338132
131.57  585.01702  2.4337682
131.52  616.19809  2.4337231
131.47  608.99174  2.4336781
131.42  619.74151  2.433633
131.37  626.61649  2.433588
131.32  633.60052  2.433543
131.27  659.10422  2.4334979
131.22  654.56306  2.4334529
131.17  657.37037  2.4334079
131.12  669.69064  2.4333628
131.07  683.25379  2.4333178
131.02  715.93231  2.4332728
130.97  703.08355  2.4332278
130.92  739.468  2.4331828
130.87  773.06386  2.4331377
130.82  797.79382  2.4330927
130.77  847.26117  2.4330477
130.72  871.77053  2.4330027
130.67  927.05928  2.4329577
130.62  989.88544  2.4329127
130.57  1014.1035  2.4328677
130.52  1052.6624  2.4328227
130.47  1115.3998  2.4327777
130.42  1147.0995  2.4327327
130.37  1221.4386  2.4326877
130.32  1285.478  2.4326427
130.27  1312.3628  2.4325977
130.22  1369.0718  2.4325528
130.17  1440.1359  2.4325078
130.12  1482.988  2.4324628
130.07  1516.7106  2.4324178
130.02  1575.6181  2.4323729
129.97  1596.3398  2.4323279
129.92  1685.4308  2.4322829
129.87  1711.4248  2.432238
129.82  1730.7224  2.432193
129.77  1757.9405  2.432148
129.72  1766.4131  2.4321031
129.67  1789.5176  2.4320581
129.62  1793.0892  2.4320132
129.57  1822.9576  2.4319682
129.52  1815.593  2.4319233
129.47  1818.6401  2.4318783
129.42  1844.0791  2.4318334
129.37  1880.7727  2.4317884
129.32  1893.5946  2.4317435
129.27  1932.6974  2.4316986
129.22  1990.5913  2.4316536
129.17  1977.5823  2.4316087
129.12  1972.6717  2.4315638
129.07  1977.4972  2.4315188
129.02  1911.4246  2.4314739
128.97  1843.3745  2.431429
128.92  1711.6685  2.4313841
128.87  1635.6754  2.4313392
128.82  1530.1309  2.4312943
128.77  1387.3542  2.4312493
128.72  1288.283  2.4312044
128.67  1141.1794  2.4311595
128.62  1032.3305  2.4311146
128.57  950.75384  2.4310697
128.52  870.64577  2.4310248
128.47  777.81335  2.4309799
128.42  758.85639  2.430935
128.37  695.71589  2.4308901
128.32  670.48966  2.4308453
128.27  642.7168  2.4308004
128.22  657.83097  2.4307555
128.17  631.80317  2.4307106
128.12  634.92968  2.4306657
128.07  592.13877  2.4306209
128.02  597.16685  2.430576
127.97  607.84889  2.4305311
127.92  595.28961  2.4304862
127.87  571.69518  2.4304414
127.82  577.06831  2.4303965
127.77  586.79507  2.4303516
127.72  573.96302  2.4303068
127.67  567.04633  2.4302619
127.62  575.49437  2.4302171
127.57  580.74241  2.4301722
127.52  570.63348  2.4301274
127.47  574.41425  2.4300825
127.42  573.70456  2.4300377
127.37  592.88665  2.4299928
127.32  583.14232  2.429948
127.27  599.27239  2.4299032
127.22  599.59605  2.4298583
127.17  573.62588  2.4298135
127.12  584.9155  2.4297687
127.07  611.57972  2.4297239
127.02  601.98846  2.429679
126.97  593.83503  2.4296342
126.92  620.10257  2.4295894
126.87  603.12901  2.4295446
126.82  626.47364  2.4294998
126.77  598.37902  2.4294549
126.72  583.62548  2.4294101
126.67  613.29014  2.4293653
126.62  610.35748  2.4293205
126.57  612.83074  2.4292757
126.52  598.24236  2.4292309
126.47  614.28126  2.4291861
126.42  625.81072  2.4291413
126.37  616.68486  2.4290965
126.32  600.20297  2.4290518
126.27  616.08544  2.429007
126.22  611.01481  2.4289622
126.17  622.18628  2.4289174
126.12  611.52873  2.4288726
126.07  624.2325  2.4288278
126.02  637.40462  2.4287831
125.97  602.45339  2.4287383
125.92  635.14668  2.4286935
125.87  628.18536  2.4286488
125.82  621.52137  2.428604
125.77  633.17943  2.4285592
125.72  634.30916  2.4285145
125.67  637.13836  2.4284697
125.62  630.15531  2.428425
125.57  626.16329  2.4283802
125.52  625.27544  2.4283355
125.47  614.84957  2.4282907
125.42  648.83606  2.428246
125.37  636.42168  2.4282012
125.32  614.34711  2.4281565
125.27  623.79004  2.4281118
125.22  635.15742  2.428067
125.17  623.10999  2.4280223
125.12  637.7594  2.4279776
125.07  626.52273  2.4279328
125.02  638.54069  2.4278881
124.97  640.74115  2.4278434
124.92  660.4993  2.4277987
124.87  646.21544  2.4277539
124.82  660.01134  2.4277092
124.77  655.24353  2.4276645
124.72  649.1145  2.4276198
124.67  661.66618  2.4275751
124.62  650.73078  2.4275304
124.57  661.97371  2.4274857
124.52  653.41058  2.427441
124.47  662.66316  2.4273963
124.42  674.6751  2.4273516
124.37  661.28742  2.4273069
124.32  641.9402  2.4272622
124.27  662.93334  2.4272175
124.22  665.50739  2.4271728
124.17  684.96495  2.4271282
124.12  696.25079  2.4270835
124.07  683.14805  2.4270388
124.02  676.57903  2.4269941
123.97  675.16347  2.4269495
123.92  677.29126  2.4269048
123.87  680.82156  2.4268601
123.82  690.64266  2.4268155
123.77  664.36588  2.4267708
123.72  664.68665  2.4267261
123.67  674.27564  2.4266815
123.62  668.1925  2.4266368
123.57  672.53741  2.4265922
123.52  698.12027  2.4265475
123.47  666.99187  2.4265029
123.42  670.90782  2.4264582
123.37  693.73162  2.4264136
123.32  688.27747  2.4263689
123.27  690.09037  2.4263243
123.22  684.9054  2.4262797
123.17  700.41415  2.426235
123.12  681.15498  2.4261904
123.07  682.05723  2.4261458
123.02  704.97397  2.4261011
122.97  679.26282  2.4260565
122.92  676.93843  2.4260119
122.87  693.34429  2.4259673
122.82  689.20904  2.4259227
122.77  691.3934  2.425878
122.72  681.75517  2.4258334
122.67  697.60124  2.4257888
122.62  674.38374  2.4257442
122.57  686.8019  2.4256996
122.52  681.99934  2.425655
122.47  704.05688  2.4256104
122.42  696.7957  2.4255658
122.37  695.03213  2.4255212
122.32  690.69446  2.4254766
122.27  680.79829  2.425432
122.22  677.99836  2.4253875
122.17  691.86823  2.4253429
122.12  673.9346  2.4252983
122.07  686.40854  2.4252537
122.02  687.95818  2.4252091
121.97  681.34058  2.4251646
121.92  671.58767  2.42512
121.87  677.95256  2.4250754
121.82  685.47304  2.4250309
121.77  664.98763  2.4249863
121.72  664.84038  2.4249417
121.67  682.03438  2.4248972
121.62  656.02529  2.4248526
121.57  663.93759  2.4248081
121.52  675.6141  2.4247635
121.47  668.86682  2.424719
121.42  656.326  2.4246744
121.37  638.53321  2.4246299
121.32  635.03183  2.4245853
121.27  640.8148  2.4245408
121.22  663.29241  2.4244962
121.17  650.64313  2.4244517
121.12  641.45421  2.4244072
121.07  632.80838  2.4243626
121.02  634.12209  2.4243181
120.97  644.83647  2.4242736
120.92  638.84396  2.4242291
120.87  622.06859  2.4241845
120.82  628.24835  2.42414
120.77  622.58921  2.4240955
120.72  641.6254  2.424051
120.67  612.79375  2.4240065
120.62  608.7259  2.423962
120.57  628.72575  2.4239175
120.52  611.06837  2.423873
120.47  614.36457  2.4238285
120.42  615.95885  2.423784
120.37  607.42629  2.4237395
120.32  613.28296  2.423695
120.27  609.01966  2.4236505
120.22  598.97173  2.423606
120.17  589.81314  2.4235615
120.12  599.26156  2.423517
120.07  595.23278  2.4234726
120.02  589.27083  2.4234281
119.97  603.99275  2.4233836
119.92  587.31897  2.4233391
119.87  569.33599  2.4232947

